! Start: 26,75°
! Ende: 29,5°
! Schritt: 0,02°
! Messzeit: 8s
#2Theta  I (pcs)
26.7500   90
26.7700   99
26.7900   106
26.8100   105
26.8300   100
26.8500   129
26.8700   136
26.8900   109
26.9100   120
26.9300   114
26.9500   129
26.9700   127
26.9900   127
27.0100   132
27.0300   112
27.0500   131
27.0700   137
27.0900   106
27.1100   148
27.1300   130
27.1500   137
27.1700   154
27.1900   158
27.2100   164
27.2300   158
27.2500   174
27.2700   168
27.2900   191
27.3100   165
27.3300   187
27.3500   189
27.3700   210
27.3900   233
27.4100   223
27.4300   248
27.4500   258
27.4700   270
27.4900   291
27.5100   284
27.5300   291
27.5500   341
27.5700   361
27.5900   368
27.6100   421
27.6300   436
27.6500   488
27.6700   546
27.6900   582
27.7100   628
27.7300   655
27.7500   773
27.7700   844
27.7900   852
27.8100   856
27.8300   796
27.8500   797
27.8700   725
27.8900   667
27.9100   592
27.9300   495
27.9500   480
27.9700   435
27.9900   437
28.0100   359
28.0300   335
28.0500   315
28.0700   285
28.0900   270
28.1100   265
28.1300   278
28.1500   231
28.1700   209
28.1900   216
28.2100   204
28.2300   194
28.2500   162
28.2700   176
28.2900   183
28.3100   169
28.3300   167
28.3500   167
28.3700   152
28.3900   138
28.4100   138
28.4300   123
28.4500   126
28.4700   136
28.4900   134
28.5100   124
28.5300   110
28.5500   116
28.5700   111
28.5900   120
28.6100   104
28.6300   107
28.6500   111
28.6700   117
28.6900   101
28.7100   98
28.7300   105
28.7500   116
28.7700   112
28.7900   99
28.8100   134
28.8300   87
28.8500   85
28.8700   96
28.8900   100
28.9100   103
28.9300   80
28.9500   102
28.9700   87
28.9900   75
29.0100   101
29.0300   101
29.0500   81
29.0700   101
29.0900   92
29.1100   103
29.1300   70
29.1500   98
29.1700   73
29.1900   71
29.2100   60
29.2300   80
29.2500   82
29.2700   94
29.2900   72
29.3100   77
29.3300   87
29.3500   73
29.3700   75
29.3900   70
29.4100   77
29.4300   74
29.4500   111
29.4700   74
29.4900   70
